psin_norm rho_norm 	R_mid_LFS [m]	R_mid_HFS [m]	a [m]		R [m]		q		Te [keV]	ne [10^19/m3]	Ti [keV]	ni [10^19/m3]	VTOR_LFS [km/s]	W_TOR [krad/s]	F0 [m*T]	BTOR_LFS [T]	ZEFF 	A_main	A_imp
0	0		1.824029	1.824029	0	  	1.824029	0.995642	3.026634	4.616123	4.53324		3.84677	 	290.4676	25.3446378	-3.234646	-1.773352288	2	2	12
0.0025	0.0255485	1.837082	1.8108365	0.01312275	1.82395925	0.998060715	3.023952	4.615067	4.488276	3.845889	288.9065439	25.02931527	-3.234480229	-1.76066187	2	2	12
0.005	0.051097	1.850135	1.797644	0.0262455	1.8238895	1.000325945	3.020708	4.61357		4.444695	3.844642	287.35865	24.71957429	-3.234315579	-1.748151124	2	2	12
0.0075	0.061715	1.8556685	1.791975	0.03184675	1.82382175	1.002393917	3.017054	4.611747	4.401642	3.843122	285.8235773	24.51420347	-3.234152369	-1.742850282	2	2	12
0.01	0.072333	1.861202	1.786306	0.037448	1.823754	1.003306104	3.013166	4.609714	4.359168	3.841428	284.301		24.31112232	-3.233992555	-1.737582785	2	2	12
0.0125	0.0804905	1.865391	1.781972	0.0417095	1.8236815	1.003997754	3.009108	4.607514	4.317283	3.839595	282.7973246	24.12823484	-3.233834212	-1.733595912	2	2	12
0.015	0.088648	1.86958		1.777638	0.045971	1.823609	1.004566751	3.004895	4.605163	4.276002	3.837635	281.3065	23.94726088	-3.233678042	-1.729628068	2	2	12
0.0175	0.095532	1.8731245	1.7739595	0.0495825	1.823542	1.005501051	3.000554	4.602683	4.235332	3.835569	279.8281966	23.77633772	-3.233523793	-1.726272756	2	2	12
0.02	0.102416	1.876669	1.770281	0.053194	1.823475	1.006598962	2.996107	4.600087	4.195274	3.833406	278.3621	23.60709544	-3.23337079	-1.722930783	2	2	12
0.0225	0.108491	1.879786	1.767033	0.0563765	1.8234095	1.007878076	2.991561	4.597386	4.15581		3.831155	276.9145302	23.44539022	-3.233220419	-1.719993882	2	2	12
0.025	0.114566	1.882903	1.763785	0.059559	1.823344	1.009039026	2.986929	4.59459		4.116954	3.828825	275.47955	23.28528453	-3.233072024	-1.717067753	2	2	12
0.0275	0.1200685	1.8857065	1.7608385	0.062434	1.8232725	1.010144711	2.982222	4.591705	4.0787		3.826421	274.0567911	23.13058421	-3.232924974	-1.714436989	2	2	12
0.03	0.125571	1.88851		1.757892	0.065309	1.823201	1.011486237	2.977443	4.588738	4.041033	3.823948	272.6459	22.97734335	-3.232780325	-1.711815307	2	2	12
0.0325	0.130641	1.8910865	1.755174	0.06795625	1.82313025	1.012790641	2.972601	4.585694	4.003949	3.821411	271.2530857	22.82881794	-3.232636955	-1.70940724	2	2	12
0.035	0.135711	1.893663	1.752456	0.0706035	1.8230595	1.014057922	2.967699	4.582578	3.967441	3.818814	269.8726	22.68173286	-3.232494866	-1.707006403	2	2	12
0.0375	0.1404395	1.8960645	1.7499165	0.073074	1.8229905	1.01542842	2.962742	4.579393	3.931506	3.816161	268.5040607	22.53813016	-3.232355778	-1.704771002	2	2	12
0.04	0.145168	1.898466	1.747377	0.0755445	1.8229215	1.016813099	2.957736	4.576144	3.896137	3.813453	267.1471	22.39586145	-3.232217863	-1.702541875	2	2	12
0.0425	0.149619	1.900735	1.7449785	0.07787825	1.82285675	1.018209951	2.952682	4.572834	3.861321	3.810695	265.8078411	22.25698576	-3.232081569	-1.700437762	2	2	12
0.045	0.15407		1.903004	1.74258		0.080212	1.822792	1.019611253	2.947582	4.569464	3.827043	3.807887	264.48055	22.11944215	-3.231946806	-1.698339471	2	2	12
0.0475	0.1582885	1.905121	1.7403045	0.08240825	1.82271275	1.021026863	2.942441	4.566039	3.793305	3.805032	263.1649054	21.98495295	-3.231813198	-1.696382118	2	2	12
0.05	0.162507	1.907238	1.738029	0.0846045	1.8226335	1.022482316	2.93726		4.562559	3.7601		3.802133	261.8606	21.85170854	-3.23168199	-1.69443037	2	2	12
0.0525	0.166528	1.9092495	1.735866	0.08669175	1.82255775	1.023930474	2.932042	4.559027	3.727414	3.799189	260.5735463	21.72139782	-3.231552564	-1.692577405	2	2	12
0.055	0.170549	1.911261	1.733703	0.088779	1.822482	1.025385507	2.926788	4.555446	3.695236	3.796205	259.2982	21.5923363	-3.231424184	-1.690728888	2	2	12
0.0575	0.1744		1.913205	1.7316305	0.09078725	1.82241775	1.026912005	2.9215		4.551816	3.663564	3.793179	258.0342003	21.4652473	-3.231297456	-1.688944706	2	2	12
0.06	0.178251	1.915149	1.729558	0.0927955	1.8223535	1.028438862	2.916179	4.54814		3.632395	3.790116	256.7812	21.3393304	-3.231172168	-1.687164898	2	2	12
0.0625	0.181953	1.9169975	1.7275565	0.0947205	1.822277	1.029966	2.910828	4.544419	3.601721	3.787016	255.5450764	21.21612683	-3.231048	-1.685473247	2	2	12
0.065	0.185655	1.918846	1.725555	0.0966455	1.8222005	1.031511059	2.905448	4.540654	3.571529	3.783878	254.32035	21.09410595	-3.230926392	-1.683786188	2	2	12
0.0675	0.1892255	1.9206215	1.723628	0.09849675	1.82212475	1.033081605	2.900039	4.536846	3.541805	3.780705	253.1066953	20.97403454	-3.230805625	-1.682166749	2	2	12
0.07	0.192796	1.922397	1.721701	0.100348	1.822049	1.034684908	2.894602	4.532996	3.512546	3.777497	251.9038	20.8550757	-3.230685937	-1.680550863	2	2	12
0.0725	0.1962495	1.9241275	1.7198355	0.102146	1.8219815	1.036291771	2.889137	4.529106	3.483746	3.774255	250.7172563	20.73817388	-3.230568516	-1.678978403	2	2	12
0.075	0.199703	1.925858	1.71797		0.103944	1.821914	1.037900071	2.883647	4.525176	3.455401	3.770979	249.5418	20.62239842	-3.230452009	-1.677409243	2	2	12
0.0775	0.203051	1.927509	1.7161495	0.10567975	1.82182925	1.039510414	2.878134	4.521208	3.427506	3.767673	248.3771404	20.50856813	-3.230336802	-1.675912694	2	2	12
0.08	0.206399	1.92916		1.714329	0.1074155	1.8217445	1.04116636	2.872597	4.517203	3.400053	3.764336	247.223		20.3958005	-3.230223035	-1.674419454	2	2	12
0.0825	0.209652	1.9307875	1.712575	0.10910625	1.82168125	1.042842589	2.867038	4.513162	3.373035	3.760968	246.0848362	20.28478955	-3.230110113	-1.672949567	2	2	12
0.085	0.212905	1.932415	1.710821	0.110797	1.821618	1.044540823	2.861456	4.509085	3.346445	3.757571	244.95745	20.17485324	-3.229998774	-1.671482976	2	2	12
0.0875	0.2160715	1.933968	1.709101	0.1124335	1.8215345	1.04623293	2.855852	4.504972	3.320271	3.754144	243.8405607	20.06673872	-3.229889017	-1.670084002	2	2	12
0.09	0.219238	1.935521	1.707381	0.11407		1.821451	1.047923515	2.850227	4.500825	3.294507	3.750687	242.7339	19.9596388	-3.22978029	-1.668687806	2	2	12
0.0925	0.222326	1.9370495	1.7057025	0.1156735	1.821376	1.049646505	2.844579	4.496642	3.269144	3.747202	241.6426909	19.85423125	-3.229672763	-1.667315556	2	2	12
0.095	0.225414	1.938578	1.704024	0.117277	1.821301	1.051394777	2.838911	4.492426	3.244179	3.743688	240.562		19.74985346	-3.229566517	-1.66594613	2	2	12
0.0975	0.228429	1.940059	1.7023975	0.11883075	1.82122825	1.05316833	2.833222	4.488176	3.219608	3.740147	239.491556	19.64696175	-3.22946155	-1.664620277	2	2	12
0.1	0.231444	1.94154		1.700771	0.1203845	1.8211555	1.054938283	2.827516	4.483894	3.195426	3.736579	238.4311	19.54504576	-3.229357783	-1.663297065	2	2	12
0.1025	0.2343925	1.942991	1.699161	0.121915	1.821076	1.056716709	2.821792	4.479582	3.171631	3.732985	237.3856455	19.44481415	-3.229254827	-1.662001948	2	2	12
0.105	0.237341	1.944442	1.697551	0.1234455	1.8209965	1.058509645	2.816049	4.475238	3.148214	3.729365	236.3504	19.34556776	-3.229153087	-1.660709389	2	2	12
0.1075	0.2402275	1.9458505	1.6959905	0.12493		1.8209205	1.060329992	2.810289	4.470864	3.12517		3.72572		235.3251016	19.24770333	-3.229052885	-1.659455793	2	2	12
0.11	0.243114	1.947259	1.69443		0.1264145	1.8208445	1.06216611	2.804513	4.46646		3.102491	3.72205		234.3095	19.15077303	-3.228953518	-1.658204439	2	2	12
0.1125	0.2459435	1.948651	1.6928875	0.12788175	1.82076925	1.064030549	2.798718	4.462026	3.080172	3.718355	233.3085249	19.0553388	-3.228855592	-1.656969664	2	2	12
0.115	0.248773	1.950043	1.691345	0.129349	1.820694	1.06589334	2.792907	4.457562	3.058205	3.714635	232.3174	18.96084475	-3.228758563	-1.655737111	2	2	12
0.1175	0.251549	1.951388	1.689838	0.130775	1.820613	1.067758558	2.787079	4.453068	3.036584	3.71089		231.3359222	18.86772673	-3.228662178	-1.654546496	2	2	12
0.12	0.254325	1.952733	1.688331	0.132201	1.820532	1.069646038	2.781234	4.448546	3.015302	3.707121	230.3639	18.77550766	-3.228567452	-1.653358371	2	2	12
0.1225	0.257051	1.9540665	1.6868455	0.1336105	1.820456	1.071554037	2.775373	4.443993	2.994355	3.703327	229.4060542	18.68468013	-3.228473806	-1.652182158	2	2	12
0.125	0.259777	1.9554		1.68536		0.13502		1.82038		1.073478	2.769495	4.439414	2.973741	3.699511	228.4578	18.59475716	-3.228381	-1.651007978	2	2	12
0.1275	0.262457	1.956693	1.683903	0.136395	1.820298	1.075432685	2.763604	4.434806	2.953453	3.695672	227.518893	18.50610007	-3.228289474	-1.649870201	2	2	12
0.13	0.265137	1.957986	1.682446	0.13777		1.820216	1.077388491	2.757698	4.430171	2.933489	3.69181		226.5891	18.4183009	-3.228198508	-1.648734214	2	2	12
0.1325	0.267773	1.959278	1.6810075	0.13913525	1.82014275	1.079345736	2.751779	4.425511	2.913844	3.687925	225.6731834	18.33175418	-3.228108263	-1.647600934	2	2	12
0.135	0.270409	1.96057		1.679569	0.1405005	1.8200695	1.081315983	2.745845	4.420823	2.894513	3.684019	224.7665	18.24607105	-3.228019717	-1.646470015	2	2	12
0.1375	0.273004	1.9618125	1.6781575	0.1418275	1.819985	1.083305038	2.739898	4.41611		2.875488	3.680092	223.8688639	18.16169297	-3.227931807	-1.645382424	2	2	12
0.14	0.275599	1.963055	1.676746	0.1431545	1.8199005	1.085331408	2.733938	4.41137		2.856762	3.676142	222.9801	18.07814102	-3.227844761	-1.644296651	2	2	12
0.1425	0.278156	1.9642915	1.675348	0.14447175	1.81981975	1.087366418	2.727962	4.406604	2.838331	3.67217		222.1046125	17.99582544	-3.227758676	-1.643217759	2	2	12
0.145	0.280713	1.965528	1.67395		0.145789	1.819739	1.089405531	2.721974	4.401812	2.820189	3.668177	221.2382	17.91434827	-3.227673275	-1.642140572	2	2	12
0.1475	0.283233	1.966743	1.67258		0.1470815	1.8196615	1.091449938	2.715972	4.396995	2.802331	3.664162	220.3805599	17.83387838	-3.227589451	-1.641083482	2	2	12
0.15	0.285753	1.967958	1.67121		0.148374	1.819584	1.093519866	2.709958	4.392152	2.784754	3.660127	219.5314	17.75419367	-3.227506013	-1.640027894	2	2	12
0.1525	0.288239	1.9691475	1.6698485	0.1496495	1.819498	1.095605799	2.703931	4.387285	2.767452	3.656072	218.6952914	17.67589104	-3.227422928	-1.638995011	2	2	12
0.155	0.290725	1.970337	1.668487	0.150925	1.819412	1.097701933	2.697892	4.382394	2.750422	3.651995	217.86785	17.59838305	-3.227341643	-1.637964289	2	2	12
0.1575	0.293178	1.9715215	1.6671525	0.1521845	1.819337	1.099823029	2.691842	4.377478	2.733659	3.647899	217.0488561	17.52169496	-3.227260997	-1.636939286	2	2	12
0.16	0.295631	1.972706	1.665818	0.153444	1.819262	1.101969086	2.68578		4.372539	2.717159	3.643783	216.2381	17.44576359	-3.227180992	-1.63591584	2	2	12
0.1625	0.298054	1.9738555	1.664491	0.15468225	1.81917325	1.104108542	2.679707	4.367576	2.700915	3.639647	215.4399452	17.3712474	-3.227102187	-1.634923219	2	2	12
0.165	0.300477	1.975005	1.663164	0.1559205	1.8190845	1.106258638	2.673623	4.36259		2.684924	3.635491	214.65015	17.29749161	-3.22702395	-1.633932041	2	2	12
0.1675	0.3028705	1.9761515	1.6618595	0.157146	1.8190055	1.108427181	2.667528	4.357581	2.669179	3.631317	213.8685274	17.22450597	-3.226946525	-1.632944906	2	2	12
0.17	0.305264	1.977298	1.660555	0.1583715	1.8189265	1.110620094	2.661422	4.352548	2.653676	3.627123	213.0949	17.15224851	-3.226870124	-1.631959433	2	2	12
0.1725	0.3076295	1.978428	1.6592635	0.15958225	1.81884575	1.112824236	2.655305	4.347492	2.638409	3.62291		212.3334239	17.08119476	-3.226794279	-1.630988987	2	2	12
0.175	0.309995	1.979558	1.657972	0.160793	1.818765	1.115045178	2.649177	4.342414	2.623374	3.618678	211.58		17.01086953	-3.226719394	-1.630020133	2	2	12
0.1775	0.3123345	1.9806625	1.6566925	0.161985	1.8186775	1.117287728	2.643039	4.337313	2.608564	3.614427	210.8344738	16.94147725	-3.226644962	-1.629073586	2	2	12
0.18	0.314674	1.981767	1.655413	0.163177	1.81859		1.119541046	2.63689		4.332188	2.593975	3.610157	210.0967	16.87278491	-3.226570974	-1.628128319	2	2	12
0.1825	0.3169885	1.982871	1.6541515	0.16435975	1.81851125	1.121801031	2.630731	4.327042	2.579604	3.605868	209.3705524	16.80510651	-3.226498649	-1.627185354	2	2	12
0.185	0.319303	1.983975	1.65289		0.1655425	1.8184325	1.124077214	2.624563	4.321874	2.565445	3.601562	208.6522	16.73812877	-3.226426685	-1.626243619	2	2	12
0.1875	0.3215935	1.985055	1.6516355	0.16670975	1.81834525	1.126366	2.618385	4.316685	2.551493	3.597237	207.9414703	16.67203824	-3.226355	-1.625322724	2	2	12
0.19	0.323884	1.986135	1.650381	0.167877	1.818258	1.128676548	2.612199	4.311475	2.537746	3.592895	207.2382	16.60661734	-3.226284595	-1.624403475	2	2	12
0.1925	0.326152	1.9872055	1.6491445	0.1690305	1.818175	1.131005301	2.606003	4.306243	2.524197	3.588536	206.5461058	16.54224171	-3.226214751	-1.623493268	2	2	12
0.195	0.32842		1.988276	1.647908	0.170184	1.818092	1.133357452	2.5998		4.300991	2.510843	3.58416		205.86155	16.47853883	-3.226145627	-1.622584403	2	2	12
0.1975	0.330666	1.9893435	1.6466775	0.171333	1.8180105	1.135715795	2.593589	4.295719	2.497677	3.579766	205.184317	16.41551512	-3.226077078	-1.621679251	2	2	12
0.2	0.332912	1.990411	1.645447	0.172482	1.817929	1.13808161	2.587369	4.290426	2.484696	3.575356	204.5142	16.353128	-3.226009205	-1.62077541	2	2	12
0.2025	0.3351375	1.991447	1.6442315	0.17360775	1.81783925	1.140461922	2.581142	4.285114	2.471895	3.570928	203.8549591	16.29193466	-3.225942641	-1.619898818	2	2	12
0.205	0.337363	1.992483	1.643016	0.1747335	1.8177495	1.142866716	2.574906	4.279781	2.459267	3.566484	203.2029	16.23137863	-3.225876077	-1.619023137	2	2	12
0.2075	0.339569	1.99352		1.64181		0.175855	1.817665	1.145283156	2.568663	4.274428	2.446808	3.562024	202.5578638	16.1714381	-3.225809876	-1.618147737	2	2	12
0.21	0.341775	1.994557	1.640604	0.1769765	1.8175805	1.147714689	2.562413	4.269056	2.434513	3.557547	201.9197	16.11210828	-3.225745248	-1.617274035	2	2	12
0.2125	0.3439615	1.9955845	1.639407	0.17808875	1.81749575	1.150169405	2.556155	4.263664	2.422376	3.553053	201.2918872	16.05374208	-3.22568101	-1.616409132	2	2	12
0.215	0.346148	1.996612	1.63821		0.179201	1.817411	1.152639121	2.54989		4.258252	2.410395	3.548544	200.67105	15.99599198	-3.225617046	-1.615545257	2	2	12
0.2175	0.348317	1.9976195	1.6370255	0.180297	1.8173225	1.15512504	2.543617	4.252822	2.398563	3.544018	200.0569608	15.9389985	-3.225553682	-1.614698736	2	2	12
0.22	0.350486	1.998627	1.635841	0.181393	1.817234	1.157618	2.537338	4.247372	2.386875	3.539477	199.4494	15.88258235	-3.225490958	-1.613853389	2	2	12
0.2225	0.3526375	1.999634	1.634663	0.1824855	1.8171485	1.160118	2.531052	4.241904	2.375328	3.53492		198.8518152	15.82702101	-3.225428874	-1.613009618	2	2	12
0.225	0.354789	2.000641	1.633485	0.183578	1.817063	1.162652206	2.52476		4.236417	2.363914	3.530348	198.26085	15.77204221	-3.22536739	-1.612166996	2	2	12
0.2275	0.356924	2.0016345	1.632317	0.18465875	1.81697575	1.165197328	2.518463	4.230912	2.352631	3.52576		197.6763328	15.71773743	-3.225306432	-1.611336352	2	2	12
0.23	0.359059	2.002628	1.631149	0.1857395	1.8168885	1.167756836	2.512159	4.225389	2.341473	3.521157	197.0981	15.66398597	-3.225246284	-1.610506936	2	2	12
0.2325	0.361178	2.0036065	1.629992	0.18680725	1.81679925	1.170340276	2.50585		4.219847	2.330435	3.51654		196.5293931	15.61116136	-3.225187163	-1.609690906	2	2	12
0.235	0.363297	2.004585	1.628835	0.187875	1.81671		1.172934682	2.499536	4.21429		2.319512	3.511907	195.96705	15.55889358	-3.225128279	-1.608875792	2	2	12
0.2375	0.365401	2.005563	1.6276805	0.18894125	1.81662175	1.175545409	2.493217	4.208714	2.308699	3.507261	195.41088	15.50717055	-3.225069395	-1.608061874	2	2	12
0.24	0.367505	2.006541	1.626526	0.1900075	1.8165335	1.178169316	2.486893	4.20312		2.297992	3.502601	194.8607	15.45597305	-3.225011402	-1.607249192	2	2	12
0.2425	0.3695945	2.00751		1.6253875	0.19106125	1.81644875	1.180802969	2.480563	4.197511	2.287385	3.497925	194.3195959	15.40561403	-3.224953971	-1.606444785	2	2	12
0.245	0.371684	2.008479	1.624249	0.192115	1.816364	1.18346298	2.47423		4.191883	2.276873	3.493236	193.78455	15.35578367	-3.224897647	-1.605641706	2	2	12
0.2475	0.3737595	2.009429	1.62311		0.1931595	1.8162695	1.186136668	2.467892	4.186239	2.26645		3.488533	193.2553773	15.30661127	-3.224841684	-1.604854754	2	2	12
0.25	0.375835	2.010379	1.621971	0.194204	1.816175	1.188821	2.46155		4.18058		2.256114	3.483816	192.7319	15.25793623	-3.224786	-1.604068686	2	2	12
0.2525	0.377897	2.0113305	1.6208445	0.195243	1.8160875	1.191543734	2.455204	4.174903	2.245857	3.479086	192.2171235	15.20998431	-3.224730956	-1.603282482	2	2	12
0.255	0.379959	2.012282	1.619718	0.196282	1.816		1.194273751	2.448853	4.16921		2.235676	3.474342	191.7081	15.16253276	-3.224676193	-1.602497161	2	2	12
0.2575	0.3820085	2.0132245	1.6186		0.19731225	1.81591225	1.197013126	2.442499	4.163501	2.225564	3.469584	191.2046748	15.1156362	-3.22462179	-1.601719922	2	2	12
0.26	0.384058	2.014167	1.617482	0.1983425	1.8158245	1.199769808	2.436142	4.157776	2.215516	3.464813	190.7067	15.06921421	-3.224567958	-1.600943694	2	2	12
0.2625	0.386095	2.015096	1.616365	0.1993655	1.8157305	1.202539377	2.429781	4.152036	2.205527	3.46003		190.216901	15.02358203	-3.224514604	-1.60017915	2	2	12
0.265	0.388132	2.016025	1.615248	0.2003885	1.8156365	1.205331875	2.423417	4.14628		2.195592	3.455233	189.73255	14.97842199	-3.224462121	-1.599415742	2	2	12
0.2675	0.390157	2.016953	1.614145	0.201404	1.815549	1.208146455	2.41705		4.140509	2.185704	3.450424	189.2535224	14.93373102	-3.224410118	-1.598654068	2	2	12
0.27	0.392182	2.017881	1.613042	0.2024195	1.8154615	1.210973302	2.410681	4.134723	2.175863	3.445603	188.7797	14.8894917	-3.224358397	-1.597893234	2	2	12
0.2725	0.394196	2.018804	1.6119395	0.20343225	1.81537175	1.213821395	2.404309	4.128921	2.166067	3.440769	188.3136784	14.84594481	-3.224307207	-1.597137318	2	2	12
0.275	0.39621		2.019727	1.610837	0.204445	1.815282	1.21668674	2.397936	4.123106	2.156318	3.435922	187.8528	14.802843	-3.224256808	-1.596382485	2	2	12
0.2775	0.3982125	2.020632	1.609743	0.2054445	1.8151875	1.219564002	2.39156		4.117278	2.146615	3.431064	187.3969201	14.76030576	-3.224206885	-1.595642791	2	2	12
0.28	0.400215	2.021537	1.608649	0.206444	1.815093	1.222464667	2.385183	4.111434	2.136957	3.426195	186.9459	14.71818922	-3.224156962	-1.59490376	2	2	12
0.2825	0.4022075	2.0224415	1.607562	0.20743975	1.81500175	1.225378774	2.378805	4.105578	2.127345	3.421314	186.5023056	14.67669836	-3.224107678	-1.5941661	2	2	12
0.285	0.4042		2.023346	1.606475	0.2084355	1.8149105	1.228306321	2.372426	4.099707	2.117778	3.416422	186.06355	14.6356252	-3.224059035	-1.593429416	2	2	12
0.2875	0.4061825	2.024248	1.6053905	0.20942875	1.81481925	1.231260273	2.366046	4.093823	2.108257	3.411519	185.6295179	14.59497817	-3.224010992	-1.592695654	2	2	12
0.29	0.408165	2.02515		1.604306	0.210422	1.814728	1.234228663	2.359665	4.087926	2.09878		3.406605	185.2001	14.55472996	-3.223962994	-1.591962568	2	2	12
0.2925	0.410138	2.02604		1.60323		0.211405	1.814635	1.237218169	2.353282	4.082015	2.089349	3.401679	184.7775827	14.51514564	-3.223915003	-1.591239562	2	2	12
0.295	0.412111	2.02693		1.602154	0.212388	1.814542	1.240231175	2.346899	4.076091	2.079961	3.396742	184.35965	14.47595605	-3.223868042	-1.5905177	2	2	12
0.2975	0.4140745	2.0278125	1.601082	0.21336525	1.81444725	1.243255369	2.340515	4.070154	2.070619	3.391795	183.9461659	14.43720342	-3.223821479	-1.589802548	2	2	12
0.3	0.416038	2.028695	1.60001		0.2143425	1.8143525	1.246296843	2.334131	4.064203	2.061322	3.386836	183.537		14.39882328	-3.223775396	-1.589088254	2	2	12
0.3025	0.417993	2.029579	1.598943	0.215318	1.814261	1.249358022	2.327746	4.058239	2.05207		3.381866	183.1342847	14.36097174	-3.223729761	-1.588373629	2	2	12
0.305	0.419948	2.030463	1.597876	0.2162935	1.8141695	1.252432005	2.321359	4.052263	2.042862	3.376886	182.7359	14.32349261	-3.223684409	-1.587659765	2	2	12
0.3075	0.421894	2.0313355	1.5968145	0.2172605	1.814075	1.255533003	2.314973	4.046274	2.0337		3.371895	182.341689	14.28645398	-3.223639606	-1.586955777	2	2	12
0.31	0.42384		2.032208	1.595753	0.2182275	1.8139805	1.258652359	2.308588	4.040274	2.024583	3.366895	181.9515	14.24976214	-3.223595523	-1.586252747	2	2	12
0.3125	0.425778	2.0330725	1.5946965	0.219188	1.8138845	1.261786	2.302203	4.034261	2.015511	3.361884	181.5673866	14.21363335	-3.223552	-1.585556836	2	2	12
